"x/c = 0.8: Wing Normalised Coordiantes in wing coordiantes[Z] (m)","x/c = 0.8: Pressure Coefficient"
0.31502464890859555,0.310875413695343
0.31768307834703147,0.31297276358770937
0.3211356329767795,0.3141202939665468
0.32571582381177333,0.315802222582437
0.3302233815661483,0.3171740096123672
0.33420812481579704,0.31799039883645774
0.33521050810305314,0.31811679656952063
0.3377513957688396,0.3183427627091079
0.339741193305922,0.3182266560500292
0.34178834458109697,0.31797544590668325
0.3433661817638161,0.3175579465509929
0.346649406954689,0.31628203036916575
0.35008459848817963,0.3139697992942012
0.3535025003764155,0.3107795263633059
0.3563542872078174,0.30633338081263656
0.35927284162558987,0.3001330987707329
0.3627300525647499,0.29121153706475056
0.36505479579787237,0.2843484502822389
0.3683684879929101,0.2693110480847655
0.37223931414403943,0.24292196763999957
0.3725674402733037,0.24001895069269275
0.3748728876035,0.22153664280870608
0.3760030189482616,0.2120424004661135
0.3788066707675221,0.18528471275743796
0.38204409213460777,0.13012926464889907
0.38521262218377206,0.05022308749985313
0.3873347672996743,-0.02590629462756617
0.38952332504228826,-0.09419976537465677
0.39181758899387314,-0.20734372234709864
0.3941974340389941,-0.3789447328307276
0.3957258691733944,-0.512267603438673
0.39594818939854304,-0.5155055127733332
0.3969171474770951,-0.5184310992272997
0.39783922371554903,-0.5720819377401087
0.3979606129459506,-0.5778699856350547
0.39910846076126016,-0.5955273481934187
0.39999458155587264,-0.7669991726316989
0.4001645687630242,-0.8158027111739217
0.31660651895378683,-0.739210959091388
0.31507329496937164,-0.7392049811112551
0.3199306977053203,-0.73811538398205
0.3216354682133664,-0.7376092372762952
0.3259610606682519,-0.7364353000697387
0.32227035556007716,-0.7374186470262302
0.3353416836925328,-0.7338376500914608
0.33263051433125584,-0.7347973159573715
0.3281302388527368,-0.7359648256930935
0.3407070282542247,-0.7318272612268898
0.3512344438095606,-0.7253010675909961
0.3553829288388567,-0.7221366216656129
0.3472287250651571,-0.727985502326804
0.346604894746906,-0.7283748633069715
0.3441758484484444,-0.729794495549045
0.3590447264841076,-0.7193027952708858
0.3623719156259408,-0.7171974072817833
0.3658363388454935,-0.7156467568855788
0.3691648149006753,-0.7150379214070638
0.37194783404480414,-0.7155487431987644
0.3744986223232593,-0.7164445516175229
0.3783152142050519,-0.7180582946401295
0.37689036921223185,-0.7172591781512139
0.3816405845004961,-0.7208054852556585
0.3789303320572347,-0.7184918879640411
0.38393112437512766,-0.7235466810577109
0.38617699382657583,-0.7254025229946889
0.3885307918189487,-0.7280043750290955
0.38887470305649363,-0.7285920776953524
0.3902610874371299,-0.7320923196136725
0.3929126837120912,-0.7398407666453357
0.394686884647914,-0.7486404557090572
0.3964148878755842,-0.7548888373405636
0.3957720931880192,-0.7524214168589219
0.3977252057903989,-0.7714582240640732
0.39671384703291007,-0.7567247502697374
0.39890305845943985,-0.8930635333178684
0.3978519942404599,-0.7824524911514543
0.4000973638025697,-0.8289052420907688
0.4001645687630242,-0.8158027111739217
0.20210781143619144,0.2633377498684584
0.2062249052892267,0.26450477811400214
0.1951344906180154,0.26143697457772774
0.2071826864482718,0.26476729980825947
0.18714367279898406,0.25954897177058656
0.17919400710515251,0.2575949536373284
0.17073075316238748,0.2558562246758363
0.16168975489601603,0.2540887954401757
0.15192687042997874,0.2522707365960393
0.14239855159587514,0.24988513901557596
0.12004790671375723,0.2481822002110725
0.11110866199249357,0.247208191053235
0.13453266026684213,0.24999724969594855
0.12613875268400748,0.2489901807828626
0.10263457284176253,0.24635846321062885
0.0939944502055731,0.24553475109355483
8.626142184765655E-17,0.24190572104516223
0.005606668112305771,0.24230546561991848
0.012337871319544252,0.24250510620321014
0.04752457227356721,0.2434108565108852
0.038336657181076095,0.24315928729923356
0.08504134474065737,0.2451763656512775
0.01757479089112612,0.2425540117616027
0.031363937289210816,0.24292116474013659
0.025266704664920363,0.24273953906711404
0.05311957733160134,0.24365474012710112
0.04820103229214067,0.2434453954349706
0.07769626827541547,0.24471092367175473
0.07148204610620874,0.24426595673398696
0.06137565501851243,0.24380505609333275
0.07094729823734713,0.24423209754977332
0.20718268644827184,0.2647672998082595
0.2146577071791906,0.26700822950028286
0.22144791962599963,0.26920124685678787
0.22665873174756396,0.2709799238170769
0.2347013591400876,0.27405044746927276
0.24153564968829827,0.2767504528147054
0.25717817817551175,0.2830497229337667
0.2638177897597003,0.28619628316495527
0.2509501145175814,0.28054293549777953
0.25604368166871655,0.28258153970113536
0.2432688551014187,0.27757699421567295
0.24776098045872277,0.27937818294986233
0.2711512455632673,0.28957340504171397
0.2759477295142652,0.29192848239474894
0.28210635847000476,0.2949935344425766
0.2865895994208743,0.29668921648860863
0.29266789411331257,0.3001601782805967
0.2972393522018597,0.3023942762932582
0.300988211181009,0.30417627790315016
0.30013207493206334,0.3037600334692353
0.3055484071899932,0.30697005552792545
0.31143383698794797,0.3094056875209164
0.31502464890859555,0.310875413695343
0.195089531147121,-0.94683828103977
0.18701679027604004,-0.9299738130435712
0.17854299037842353,-0.9043175796095368
0.05867687033233815,-0.39136252909106284
0.06135181657338832,-0.3957813906331076
0.05575851421158772,-0.3867210391560839
0.047161745009488686,-0.37540545639389733
0.1699776708699476,-0.8703867295767882
0.16097502389384555,-0.8278998626665016
0.15132589672519425,-0.7778334001366358
0.14176114226146114,-0.7245267778226878
0.11927662162322797,-0.5971205286555613
0.12118393394930843,-0.6074336993750027
0.12540026348196778,-0.6304876088912644
0.1342806010053852,-0.6799895912905431
0.06996131231079887,-0.4125263437132485
0.079189273207968,-0.4350170749761583
0.08639653774708925,-0.45642866910107116
0.0918351891481013,-0.4748090995678891
0.09304795831608696,-0.47918700568934225
0.004908223905025581,-0.35166890086196156
2.1331646389149017E-12,-0.3516115016629606
0.011692236434327737,-0.35287320818541457
0.01692853029490477,-0.35435418000006536
0.01694364027022015,-0.3543585534348065
0.0348917107859292,-0.3638154853483535
0.039049081889807366,-0.36729587079294085
0.1013335056156364,-0.511962140191622
0.11043449610639261,-0.5524347119602797
0.02523424343972206,-0.3575946527615055
0.03339722837618419,-0.36264584107936715
0.195089531147121,-0.94683828103977
0.20287890513839715,-0.955122410221654
0.20788567809354552,-0.9557507666001422
0.21448497453616724,-0.9513295762194409
0.22196513868410728,-0.9387413813419401
0.2267600080644725,-0.9269459664275165
0.2252707383286564,-0.9307134179356108
0.2345360971015582,-0.9030728658208274
0.24216216547354752,-0.8758118813170545
0.24880439522735043,-0.852904366995327
0.25596351644537785,-0.8311154604701128
0.2501362759967144,-0.8485734918298202
0.25684206081651806,-0.8286370737955703
0.2629566923541794,-0.8124676989347933
0.31507329496937164,-0.7392049811112551
0.3113569044001051,-0.74144593236445
0.2694771350659603,-0.797858040571491
0.3078895498182163,-0.7432450440461511
0.3032657303078396,-0.7466700993017319
0.2993426660194358,-0.7503713957839703
0.2757349564744578,-0.7851694197526577
0.2817812948855398,-0.7739725885436712
0.28787881824065653,-0.7639473913759256
0.2944066963545327,-0.7561847748663892
