"x/c = 0.8: Wing Normalised Coordiantes in wing coordiantes[Z] (m)","x/c = 0.8: Pressure Coefficient"
0.31502464890859555,0.2838676483572026
0.31768307834703147,0.28516744465331534
0.3211356329767795,0.2856495700533378
0.32571582381177333,0.2861398597316369
0.3302233815661483,0.28624616277215204
0.33420812481579704,0.28580922203103876
0.33521050810305314,0.2855916878620737
0.3377513957688396,0.2849268727103243
0.339741193305922,0.28408706899300806
0.34178834458109697,0.28306253156545313
0.3433661817638161,0.28200851311023334
0.346649406954689,0.27934629845546116
0.35008459848817963,0.27529715260345367
0.3535025003764155,0.2702333760959423
0.3563542872078174,0.2640231367832391
0.35927284162558987,0.25591883705689655
0.3627300525647499,0.2444828263499314
0.36505479579787237,0.2358381502510684
0.3683684879929101,0.21760697284697322
0.37223931414403943,0.18647462015715968
0.3725674402733037,0.1830955569949129
0.3748728876035,0.1614461495892704
0.3760030189482616,0.1505297995742571
0.3788066707675221,0.12019999771907214
0.38204409213460777,0.05884117603976322
0.38521262218377206,-0.028684674266944724
0.3873347672996743,-0.11071602436319822
0.38952332504228826,-0.18346932358832924
0.39181758899387314,-0.30340488160365836
0.3941974340389941,-0.4849611103333867
0.3957258691733944,-0.6237357254553821
0.39594818939854304,-0.6263602043103269
0.3969171474770951,-0.625889728828052
0.39783922371554903,-0.6770142238872229
0.3979606129459506,-0.682526977820067
0.39910846076126016,-0.6979090133524732
0.39999458155587264,-0.8699907486244736
0.4001645687630242,-0.9191138951438008
0.31660651895378683,-0.8394145857521564
0.31507329496937164,-0.8402571859953437
0.3199306977053203,-0.8377093802720765
0.3216354682133664,-0.8367857714595611
0.3259610606682519,-0.8341424394407675
0.32227035556007716,-0.8364304038543791
0.3353416836925328,-0.8278141100475713
0.33263051433125584,-0.8298452549627369
0.3281302388527368,-0.8327163423291628
0.3407070282542247,-0.8238563166523012
0.3512344438095606,-0.8160967653920811
0.3553829288388567,-0.8134371236060343
0.3472287250651571,-0.8188389398702857
0.346604894746906,-0.8192889839546007
0.3441758484484444,-0.8210953502883356
0.3590447264841076,-0.811475548913526
0.3623719156259408,-0.8103180610866868
0.3658363388454935,-0.8097248551431875
0.3691648149006753,-0.8099451039613768
0.37194783404480414,-0.8109619518900686
0.3744986223232593,-0.8121112796003944
0.3783152142050519,-0.8139273676053936
0.37689036921223185,-0.8130912086670621
0.3816405845004961,-0.8166930280425586
0.3789303320572347,-0.8143730426878042
0.38393112437512766,-0.81947364742886
0.38617699382657583,-0.8214806643999623
0.3885307918189487,-0.8244870065599816
0.38887470305649363,-0.8251835095463181
0.3902610874371299,-0.8292889050286266
0.3929126837120912,-0.8385634739439785
0.394686884647914,-0.8488606450766648
0.3964148878755842,-0.8549155173865464
0.3957720931880192,-0.8527113249816796
0.3977252057903989,-0.8702716379887607
0.39671384703291007,-0.8565383297896627
0.39890305845943985,-0.9944011444460552
0.3978519942404599,-0.8814159484437114
0.4000973638025697,-0.9322072742102122
0.4001645687630242,-0.9191138951438008
0.20210781143619144,0.24942198274106833
0.2062249052892267,0.2503085388591283
0.1951344906180154,0.24796635168346925
0.2071826864482718,0.25050552821286487
0.18714367279898406,0.24655512157389886
0.17919400710515251,0.24504513172015513
0.17073075316238748,0.24372915312046153
0.16168975489601603,0.24237079990496468
0.15192687042997874,0.2409367369901663
0.14239855159587514,0.2388804288638946
0.12004790671375723,0.23788971930414796
0.11110866199249357,0.23713387429162414
0.13453266026684213,0.23929108379673875
0.12613875268400748,0.23853557849626156
0.10263457284176253,0.2364704745254483
0.0939944502055731,0.23581441259573116
8.626142184765655E-17,0.23303407383760633
0.005606668112305771,0.2334574304466578
0.012337871319544252,0.23365633155157345
0.04752457227356721,0.23435076651055173
0.038336657181076095,0.2341838470581133
0.08504134474065737,0.23562219308517676
0.01757479089112612,0.23368851137482943
0.031363937289210816,0.23399442797618275
0.025266704664920363,0.23384793035543544
0.05311957733160134,0.23453831191560875
0.04820103229214067,0.2343789668534715
0.07769626827541547,0.23527098355071202
0.07148204610620874,0.23491486407709594
0.06137565501851243,0.23458365725323804
0.07094729823734713,0.2348881500921625
0.20718268644827184,0.25050552821286487
0.2146577071791906,0.2522062006637731
0.22144791962599963,0.25388680109526013
0.22665873174756396,0.25524839675659683
0.2347013591400876,0.25764290560259145
0.24153564968829827,0.2597107886449209
0.25717817817551175,0.264446458993643
0.2638177897597003,0.2668592860770304
0.2509501145175814,0.26258001599545483
0.25604368166871655,0.2640978713602074
0.2432688551014187,0.2603670658350291
0.24776098045872277,0.2617330771444349
0.2711512455632673,0.2693940085429485
0.2759477295142652,0.27115893895416127
0.28210635847000476,0.2734057709619845
0.2865895994208743,0.2745410594512874
0.29266789411331257,0.2770806792639324
0.2972393522018597,0.27860236951336564
0.300988211181009,0.2797677991129694
0.30013207493206334,0.2794947809311484
0.3055484071899932,0.28170607204622944
0.31143383698794797,0.2831496464459696
0.31502464890859555,0.2838676483572026
0.195089531147121,-0.9810086885577073
0.18701679027604004,-0.9552056870191913
0.17854299037842353,-0.9207835337378929
0.05867687033233815,-0.4419752752096283
0.06135181657338832,-0.44537254373614704
0.05575851421158772,-0.4383950123760724
0.047161745009488686,-0.4295272609092287
0.1699776708699476,-0.8791411208101447
0.16097502389384555,-0.8303738331613391
0.15132589672519425,-0.7765125764048751
0.14176114226146114,-0.7222976286969425
0.11927662162322797,-0.6046463706596945
0.12118393394930843,-0.6136528349362684
0.12540026348196778,-0.6339342501209011
0.1342806010053852,-0.6793191697779744
0.06996131231079887,-0.4581146206366584
0.079189273207968,-0.47506260280772283
0.08639653774708925,-0.49124160584428717
0.0918351891481013,-0.5052669611804074
0.09304795831608696,-0.5086309685968273
0.004908223905025581,-0.41012417419749686
2.1331646389149017E-12,-0.4100006310729626
0.011692236434327737,-0.4111653934536168
0.01692853029490477,-0.41240262076545803
0.01694364027022015,-0.41240629516216876
0.0348917107859292,-0.42023547037342324
0.039049081889807366,-0.42306062840499936
0.1013335056156364,-0.5341865489340433
0.11043449610639261,-0.5668444468419781
0.02523424343972206,-0.4151236202283972
0.03339722837618419,-0.41928391267869947
0.195089531147121,-0.9810086885577073
0.20287890513839715,-0.9981976416542999
0.20788567809354552,-1.0047362965737678
0.21448497453616724,-1.0078790622640954
0.22196513868410728,-1.0038652685334872
0.2267600080644725,-0.997365106408882
0.2252707383286564,-0.9994793537882241
0.2345360971015582,-0.9812445646672014
0.24216216547354752,-0.9602563078225117
0.24880439522735043,-0.9410715912602966
0.25596351644537785,-0.9218630305389166
0.2501362759967144,-0.9372841056341829
0.25684206081651806,-0.9196593407321675
0.2629566923541794,-0.9054055845210895
0.31507329496937164,-0.8402571859953438
0.3113569044001051,-0.8426978537150842
0.2694771350659603,-0.8930573440982429
0.3078895498182163,-0.8448647545649312
0.3032657303078396,-0.8488110159280278
0.2993426660194358,-0.8525090251981434
0.2757349564744578,-0.882740726733293
0.2817812948855398,-0.8738940439279186
0.28787881824065653,-0.8655693716074964
0.2944066963545327,-0.858177933008005
