"x/c = 0.8: Wing Normalised Coordiantes in wing coordiantes[Z] (m)","x/c = 0.8: Pressure Coefficient"
0.31502464890859555,0.33555987740983334
0.31768307834703147,0.3372319342451342
0.3211356329767795,0.3379998650078976
0.32571582381177333,0.33895983508641025
0.3302233815661483,0.33952074255663217
0.33420812481579704,0.33947477750107663
0.33521050810305314,0.33935438692355807
0.3377513957688396,0.33893252659319406
0.339741193305922,0.3382697117294478
0.34178834458109697,0.3374216100900786
0.3433661817638161,0.3364903146077254
0.346649406954689,0.3340503500012115
0.35008459848817963,0.3302399967157964
0.3535025003764155,0.3253810083601466
0.3563542872078174,0.3192714960425276
0.35927284162558987,0.3111940990401616
0.3627300525647499,0.2997552992275665
0.36505479579787237,0.29109048636049534
0.3683684879929101,0.27258652528783683
0.37223931414403943,0.24076741143454267
0.3725674402733037,0.23730893970379532
0.3748728876035,0.21516101883089006
0.3760030189482616,0.20399312242370293
0.3788066707675221,0.17296676657433455
0.38204409213460777,0.10983207607943035
0.38521262218377206,0.01953803463014415
0.3873347672996743,-0.06474958383924526
0.38952332504228826,-0.1392700207239369
0.39181758899387314,-0.26210659255692137
0.3941974340389941,-0.4485980977490689
0.3957258691733944,-0.5901364241397572
0.39594818939854304,-0.5923272783447847
0.3969171474770951,-0.589546893610499
0.39783922371554903,-0.6383649263367566
0.3979606129459506,-0.6437141340020923
0.39910846076126016,-0.6581745377303106
0.39999458155587264,-0.8276879403713158
0.4001645687630242,-0.8761064577849037
0.31660651895378683,-0.8171405537918204
0.31507329496937164,-0.8181788246235466
0.3199306977053203,-0.8146625339677523
0.3216354682133664,-0.8134541703550284
0.3259610606682519,-0.8103048301214066
0.32227035556007716,-0.8129917599353881
0.3353416836925328,-0.8035598607488375
0.33263051433125584,-0.8057824796163678
0.3281302388527368,-0.8087964923143063
0.3407070282542247,-0.7988927817182736
0.3512344438095606,-0.7864961157207817
0.3553829288388567,-0.7809017026317692
0.3472287250651571,-0.7914195208342969
0.346604894746906,-0.792165082520747
0.3441758484484444,-0.794963492632407
0.3590447264841076,-0.7759485043277862
0.3623719156259408,-0.7721641112224311
0.3658363388454935,-0.7692952718923338
0.3691648149006753,-0.7677691889362028
0.37194783404480414,-0.7678049527816209
0.3744986223232593,-0.7685616201541389
0.3783152142050519,-0.7703034221463396
0.37689036921223185,-0.7694154444630962
0.3816405845004961,-0.773468626457307
0.3789303320572347,-0.7708032632161819
0.38393112437512766,-0.7766523829972314
0.38617699382657583,-0.7788028565478005
0.3885307918189487,-0.7817754836664886
0.38887470305649363,-0.7824522557657463
0.3902610874371299,-0.7864657623522359
0.3929126837120912,-0.7953889748037668
0.394686884647914,-0.8052699044131438
0.3964148878755842,-0.8112367942579751
0.3957720931880192,-0.8090314482433572
0.3977252057903989,-0.826448567118001
0.39671384703291007,-0.8128507761240524
0.39890305845943985,-0.9497710458119253
0.3978519942404599,-0.8375193041668543
0.4000973638025697,-0.889007353952653
0.4001645687630242,-0.8761064577849037
0.20210781143619144,0.29230228381077306
0.2062249052892267,0.29343813490788234
0.1951344906180154,0.29043603963548587
0.2071826864482718,0.29369300472296944
0.18714367279898406,0.28857782155413436
0.17919400710515251,0.28662692203782825
0.17073075316238748,0.2848817221726414
0.16168975489601603,0.2830887499027278
0.15192687042997874,0.28122401983103146
0.14239855159587514,0.278741639688165
0.12004790671375723,0.27696542558490167
0.11110866199249357,0.2759188329226183
0.13453266026684213,0.27888066579159276
0.12613875268400748,0.27782417017849625
0.10263457284176253,0.2750001054550968
0.0939944502055731,0.27410799131031266
8.626142184765655E-17,0.2701737184978598
0.005606668112305771,0.27060969386920364
0.012337871319544252,0.27082626549766886
0.04752457227356721,0.27179784809179847
0.038336657181076095,0.271530015508975
0.08504134474065737,0.27371253165746373
0.01757479089112612,0.27087967711558736
0.031363937289210816,0.2712751733057874
0.025266704664920363,0.2710818717882828
0.05311957733160134,0.27205981595567663
0.04820103229214067,0.27183500842179703
0.07769626827541547,0.2732050400392228
0.07148204610620874,0.2727231002686604
0.06137565501851243,0.2722242630098566
0.07094729823734713,0.2726863048149173
0.20718268644827184,0.29369300472296944
0.2146577071791906,0.2958545469150413
0.22144791962599963,0.2979569237503824
0.22665873174756396,0.2996534640885632
0.2347013591400876,0.30258517191140866
0.24153564968829827,0.305134790858471
0.25717817817551175,0.3110193029223666
0.2638177897597003,0.3139648928997367
0.2509501145175814,0.30869027353622536
0.25604368166871655,0.3105851937180923
0.2432688551014187,0.30592331780796284
0.24776098045872277,0.3076146094700099
0.2711512455632673,0.3170915774284141
0.2759477295142652,0.3192592626399698
0.28210635847000476,0.32204401210935796
0.2865895994208743,0.32352258786310795
0.29266789411331257,0.32664155772997544
0.2972393522018597,0.3285854539413252
0.300988211181009,0.3301057694087752
0.30013207493206334,0.32975038034659016
0.3055484071899932,0.3325315574966007
0.31143383698794797,0.3344913456521182
0.31502464890859555,0.33555987740983334
0.195089531147121,-0.9887127897612473
0.18701679027604004,-0.9636020373529615
0.17854299037842353,-0.9302439875914552
0.05867687033233815,-0.4010811282905006
0.06135181657338832,-0.40584361024554794
0.05575851421158772,-0.39604242813862767
0.047161745009488686,-0.3834352033702323
0.1699776708699476,-0.8897158292154946
0.16097502389384555,-0.8416934171498568
0.15132589672519425,-0.7876225141127209
0.14176114226146114,-0.7319850765323057
0.11927662162322797,-0.6046477847725038
0.12118393394930843,-0.6147635550934007
0.12540026348196778,-0.6374180998269124
0.1342806010053852,-0.6866716103847226
0.06996131231079887,-0.4234464973214722
0.079189273207968,-0.4463515976187058
0.08639653774708925,-0.46764037816462317
0.0918351891481013,-0.48570203095833997
0.09304795831608696,-0.48998026623682345
0.004908223905025581,-0.3551009707176714
2.1331646389149017E-12,-0.3549753257189267
0.011692236434327737,-0.35655908341821674
0.01692853029490477,-0.3583891324904384
0.01694364027022015,-0.3583945631014693
0.0348917107859292,-0.369969752334308
0.039049081889807366,-0.3740796087847247
0.1013335056156364,-0.5218457521645333
0.11043449610639261,-0.5610639028919961
0.02523424343972206,-0.3624396914983723
0.03339722837618419,-0.3685774017235267
0.195089531147121,-0.9887127897612473
0.20287890513839715,-1.0058092290774991
0.20788567809354552,-1.0126943938931119
0.21448497453616724,-1.0167859155472305
0.22196513868410728,-1.0143459711416263
0.2267600080644725,-1.009048942302314
0.2252707383286564,-1.010802240412505
0.2345360971015582,-0.9947132252186849
0.24216216547354752,-0.9740437884179649
0.24880439522735043,-0.9534397023973283
0.25596351644537785,-0.9306639421017439
0.2501362759967144,-0.949129167794706
0.25684206081651806,-0.9279173399566746
0.2629566923541794,-0.909169871822754
0.31507329496937164,-0.8181788246235467
0.3113569044001051,-0.8222126755377138
0.2694771350659603,-0.8921083312658353
0.3078895498182163,-0.8256218703586804
0.3032657303078396,-0.8314400835009268
0.2993426660194358,-0.8368374020966242
0.2757349564744578,-0.8780497919707152
0.2817812948855398,-0.8660650343692027
0.28787881824065653,-0.8547442274467321
0.2944066963545327,-0.8446979911963974
